"F [GHz]","dB(S(Port1,Port1)) []","dB(S(Port1,Port2)) []","dB(S(Port1,Port3)) []"
0.1,-9.52352940808927,-3.54973430070951,-3.54688231836772
0.125,-9.49205843520248,-3.55811496946142,-3.55378603188101
0.15,-9.45287161487028,-3.56746430454637,-3.56134388684105
0.175,-9.4069271011365,-3.57775484605308,-3.56952798334924
0.2,-9.35521225408791,-3.58893091634715,-3.57828328463526
0.225,-9.29874050999469,-3.60091539602696,-3.58753479634713
0.25,-9.23854182766238,-3.61361466394127,-3.59719303872694
0.275,-9.17564824445819,-3.62692193028624,-3.60715799764102
0.3,-9.11107821277441,-3.64071958120702,-3.6173221863011
0.325,-9.04582212875548,-3.6548810110094,-3.62757318691121
0.35,-8.98083036079685,-3.66927214119785,-3.63779590898624
0.375,-8.91700421897552,-3.68375281070135,-3.64787462130123
0.4,-8.85518996208497,-3.69817808260992,-3.65769480507175
0.425,-8.79617557991444,-3.71239955634646,-3.66714480066211
0.45,-8.74068999677165,-3.72626671355658,-3.67611723814306
0.475,-8.68940428297025,-3.73962834976596,-3.68451020514267
0.5,-8.64293444552007,-3.75233411247441,-3.69222813489027
0.525,-8.60184541085859,-3.76423615498546,-3.69918240351399
0.55,-8.56665584788793,-3.77519092245352,-3.7052916229124
0.575,-8.53784353587843,-3.78506102964408,-3.71048167278359
0.6,-8.51585106538501,-3.79371719127391,-3.71468550567901
0.625,-8.50109166311157,-3.80104014053333,-3.71784280076434
0.65,-8.49395502606507,-3.80692245041054,-3.71989954706263
0.675,-8.49481306406947,-3.81127017180575,-3.72080764600715
0.7,-8.50402548754236,-3.81400421179251,-3.72052461239941
0.725,-8.52194523814731,-3.81506137213214,-3.71901344475996
0.75,-8.5489237127408,-3.81439502699745,-3.71624270187093
0.775,-8.58531582800896,-3.81197541576943,-3.71218679943938
0.8,-8.63148494099151,-3.80778957612749,-3.70682650871588
0.825,-8.68780765505524,-3.80184096651493,-3.7001496153153
0.85,-8.75467857863823,-3.79414883434441,-3.69215168063135
0.875,-8.83251508162556,-3.78474740954299,-3.68283683586403
0.9,-8.92176212341883,-3.77368498579466,-3.67221854843196
0.925,-9.02289724032974,-3.76102295291792,-3.66032029755443
0.95,-9.13643576972717,-3.74683482908901,-3.64717611584832
0.975,-9.26293643743597,-3.73120531948641,-3.63283096337307
1,-9.40300742795946,-3.71422942304081,-3.61734091231901
1.025,-9.55731309182252,-3.69601158293346,-3.60077314154531
1.05,-9.72658148248461,-3.67666487997857,-3.58320573464739
1.075,-9.91161295509269,-3.65631025037906,-3.56472729335009
1.1,-10.1132900991216,-3.63507571065185,-3.54543638075674
1.125,-10.3325893865661,-3.61309557143132,-3.52544080210979
1.15,-10.5705949730419,-3.59050962131079,-3.50485674330279
1.175,-10.8285152461529,-3.5674622643784,-3.48380778016696
1.2,-11.1077028842556,-3.54410160189411,-3.4624237697564
1.225,-11.4096794234169,-3.52057844668939,-3.44083964087218
1.25,-11.7361656489704,-3.49704526925144,-3.41919409622665
1.275,-12.0891196155919,-3.47365507368591,-3.39762823876923
1.3,-12.470784701119,-3.4505602101152,-3.3762841389865
1.325,-12.8837510774363,-3.42791113298012,-3.35530335446146
1.35,-13.3310353092765,-3.40585511354959,-3.33482542478543
1.375,-13.8161848447942,-3.38453492797682,-3.31498635396874
1.4,-14.3434172619555,-3.3640875367417,-3.29591710318357
1.425,-14.9178089897052,-3.34464277509336,-3.27774211639154
1.45,-15.5455560165893,-3.32632208129794,-3.26057789725598
1.475,-16.2343420021937,-3.30923728249264,-3.2445316644914
1.5,-16.9938713501875,-3.29348946511589,-3.22970010515747
1.525,-17.8366642789381,-3.27916795111726,-3.21616825145225
1.55,-18.7792848081365,-3.26634940474798,-3.20400849944948
1.575,-19.8443186240506,-3.25509708840036,-3.19327979040232
1.6,-21.0637263186858,-3.24546028341189,-3.18402697337907
1.625,-22.4849052041372,-3.2374738947395,-3.1762803566993
1.65,-24.1825928954771,-3.23115824258741,-3.17005546483437
1.675,-26.2849914753442,-3.22651905152499,-3.16535300076851
1.7,-29.040950263709,-3.22354763456504,-3.16215901776385
1.725,-33.0414236366354,-3.22222126997958,-3.16044529456319
1.75,-40.371860112401,-3.22250375801394,-3.16016990981084
1.775,-46.6932409079654,-3.22434614806269,-3.16127799868907
1.8,-35.6790841822758,-3.2276876149486,-3.16370267905816
1.825,-30.8548682970071,-3.23245646372892,-3.16736612640473
1.85,-27.8146790195124,-3.23857123762118,-3.17218077626565
1.875,-25.6124824057219,-3.24594190205421,-3.17805063055913
1.9,-23.8992832295645,-3.25447107893716,-3.18487264150144
1.925,-22.5078766836092,-3.26405529920095,-3.19253815248127
1.95,-21.3451925362145,-3.27458624946732,-3.20093436989684
1.975,-20.3540770325758,-3.28595198775198,-3.20994584501615
2,-19.4968984910019,-3.29803810421387,-3.21945594749632
2.025,-18.7475521114493,-3.31072880903292,-3.22934831421217
2.05,-18.0871794263747,-3.32390793289789,-3.23950825731785
2.075,-17.5017072025065,-3.33745982795755,-3.24982412092146
2.1,-16.9803504240392,-3.3512701635649,-3.26018857376692
2.125,-16.5146590863112,-3.36522661279294,-3.2704998284784
2.15,-16.0978877830786,-3.37921943493644,-3.28066277359094
2.175,-15.7245652247062,-3.39314195669694,-3.29059000960474
2.2,-15.3901921097922,-3.40689096726418,-3.30020277141683
2.225,-15.0910239545001,-3.42036704207477,-3.30943172370356
2.25,-14.8239116953334,-3.43347481684675,-3.31821760979033
2.275,-14.5861824866521,-3.44612323645057,-3.32651173512059
2.3,-14.3755490235569,-3.45822580808389,-3.33427626472917
2.325,-14.1900395144865,-3.46970088555367,-3.34148431510432
2.35,-14.0279427928626,-3.4804720134816,-3.34811982464021
2.375,-13.8877647151204,-3.49046835388078,-3.35417719098811
2.4,-13.7681930763223,-3.49962520848351,-3.35966067306067
2.425,-13.6680689972843,-3.50788464139831,-3.36458356651187
2.45,-13.5863633170691,-3.51519619112871,-3.36896717148726
2.475,-13.5221568424447,-3.52151764311489,-3.37283959260636
2.5,-13.474623630849,-3.52681582397196,-3.37623441472549
2.525,-13.4430166434543,-3.53106735902956,-3.37918931881906
2.55,-13.4266552725129,-3.53425933209015,-3.38174470189439
2.575,-13.4249143534094,-3.5363897809953,-3.38394236949359
2.6,-13.4372143561603,-3.53746796867426,-3.38582436336768
2.625,-13.4630125191848,-3.53751438277127,-3.38743197438828
2.65,-13.5017947264707,-3.53656043634962,-3.38880497464093
2.675,-13.5530680053509,-3.53464786232512,-3.38998108199365
2.7,-13.6163535105636,-3.53182781997989,-3.39099565227574
2.725,-13.6911799258237,-3.52815975456415,-3.39188157119819
2.75,-13.7770772411248,-3.52371005988375,-3.39266931146831
2.775,-13.8735708612423,-3.51855061488369,-3.39338710414524
2.8,-13.9801760729729,-3.51275725857221,-3.39406117600969
2.825,-14.0963928875621,-3.50640827016363,-3.39471600568217
2.85,-14.2217013276239,-3.49958291125845,-3.39537455800328
2.875,-14.3555572572811,-3.49236007575146,-3.39605846604187
2.9,-14.4973888669825,-3.48481708092776,-3.39678814205263
2.925,-14.6465939925981,-3.47702861981742,-3.39758280728193
2.95,-14.8025384418986,-3.4690658837009,-3.39846044296626
2.975,-14.9645555467503,-3.46099585596138,-3.39943766928456
3,-15.1319471840051,-3.45288076865246,-3.40052956694883
3.025,-15.3039864923623,-3.44477771211338,-3.40174945744074
3.05,-15.4799225215964,-3.43673838227543,-3.4031086607439
3.075,-15.6589870100341,-3.4288089514327,-3.40461624766773
3.1,-15.840403428194,-3.42103004593471,-3.40627880467603
3.125,-16.0233983297035,-3.41343681897123,-3.40810022358671
3.15,-16.2072149480709,-3.40605910188226,-3.41008153068948
3.175,-16.3911288124977,-3.39892162517055,-3.41222076180987
3.2,-16.5744650002914,-3.39204429666071,-3.41451289141595
3.225,-16.7566164675291,-3.38544252766937,-3.41694981922021
3.25,-16.9370627424047,-3.37912759829761,-3.41952041592999
3.275,-17.1153881332744,-3.37310705414876,-3.4222106275683
3.3,-17.2912985393448,-3.36738512650816,-3.42500363650024
3.325,-17.4646359403153,-3.361963168743,-3.42788007610333
3.35,-17.635389736256,-3.35684010224071,-3.43081829403582
3.375,-17.8037042607268,-3.35201286502731,-3.43379465920437
3.4,-17.9698820279887,-3.34747685706645,-3.43678390597531
3.425,-18.134382557789,-3.34322637496407,-3.43975951017568
3.45,-18.2978168970678,-3.33925503107279,-3.44269408964622
3.475,-18.4609382350506,-3.33555615175709,-3.44555982219019
3.5,-18.6246292266541,-3.33212314785722,-3.44832887586786
3.525,-18.789886755973,-3.32894985519993,-3.45097384270149
3.55,-18.957804924816,-3.32603083885227,-3.45346817150739
3.575,-19.1295569903046,-3.32336165989955,-3.45578659131267
3.6,-19.3063768440655,-3.320939099719,-3.45790552135522
3.625,-19.489540367071,-3.31876134211481,-3.45980346003437
3.65,-19.6803467566863,-3.31682810989346,-3.46146134875119
3.675,-19.880099500493,-3.31514075858228,-3.46286290312933
3.7,-20.0900863434428,-3.31370232374301,-3.46399490965581
3.725,-20.3115570204376,-3.31251752613163,-3.46484748086712
3.75,-20.5456970078283,-3.31159273530351,-3.46541426552959
3.775,-20.7935947881568,-3.31093589292734,-3.46569261138749
3.8,-21.0561992013318,-3.31055640091264,-3.46568367513743
3.825,-21.3342623215964,-3.31046497433406,-3.46539247998598
3.85,-21.6282617939047,-3.31067346554559,-3.46482791637011
3.875,-21.9382949163509,-3.31119465979647,-3.46400268721523
3.9,-22.2639348051728,-3.3120420484931,-3.46293319555453
3.925,-22.6040375729844,-3.31322958135619,-3.46163937658333
3.95,-22.9564892611276,-3.3147714012685,-3.46014447570042
3.975,-23.3178847588834,-3.3166815648698,-3.45847477478307
4,-23.6831416416896,-3.31897375160751,-3.45665927085343
4.025,-24.0450757437734,-3.32166096415915,-3.45472931186069
4.05,-24.3940091474121,-3.324755222386,-3.4527181960317
4.075,-24.7175483496432,-3.32826725477199,-3.45066074083285
4.1,-25.0007491659868,-3.33220618950762,-3.44859283034347
4.125,-25.2269316406427,-3.33657924941659,-3.44655094875453
4.15,-25.3793392592292,-3.34139145337276,-3.44457171010601
4.175,-25.4435674759703,-3.34664532942648,-3.44269139233155
4.2,-25.410243323391,-3.35234064254798,-3.44094548600648
4.225,-25.2770634810325,-3.35847414170221,-3.43936826618619
4.25,-25.0493503836184,-3.36503933082713,-3.43799239525555
4.275,-24.7388771802881,-3.37202626668727,-3.43684856505967
4.3,-24.3614801057582,-3.37942138946043,-3.4359651828059
4.325,-23.9343850741903,-3.38720738820839,-3.43536810690971
4.35,-23.4740334459157,-3.39536310578628,-3.43508043547553
4.375,-22.9947504023897,-3.40386348719906,-3.43512234866019
4.4,-22.5082049102775,-3.4126795742578,-3.43551100618609
4.425,-22.0234215073715,-3.42177855054862,-3.43626049845734
4.45,-21.5470896848505,-3.43112384126243,-3.43738184850821
4.475,-21.0839830984023,-3.44067527059696,-3.43888306284223
4.5,-20.6373782264578,-3.45038928286554,-3.44076922592911
4.525,-20.2094207779392,-3.46021923214956,-3.44304263456687
4.55,-19.8014237736122,-3.47011574625268,-3.44570296919478
4.575,-19.414099400774,-3.48002717464996,-3.44874749802423
4.6,-19.0477341511169,-3.48990012879905,-3.45217131658005
4.625,-18.7023184923734,-3.49968013113941,-3.45596762623028
4.65,-18.3776414737386,-3.50931239347316,-3.46012806657742
4.675,-18.0733589354102,-3.51874275760022,-3.46464313036785
4.7,-17.7890421125792,-3.52791885369117,-3.46950271408729
4.725,-17.5242118254129,-3.53679157035229,-3.47469690163508
4.75,-17.2783621531718,-3.54531700543615,-3.48021715917443
4.775,-17.0509766110334,-3.55345921819808,-3.4860582693444
4.8,-16.8415395335265,-3.56119440842501,-3.49222163917824
4.825,-16.6495460876728,-3.56851781459982,-3.49872125772507
4.85,-16.4745176786809,-3.57545615241335,-3.50559502245435
4.875,-16.3160409537703,-3.582092156215,-3.51292762304618
4.9,-16.173887351968,-3.58861765467144,-3.52090009647906
4.925,-16.0484126141263,-3.59545941293475,-3.5299054887761
4.95,-15.9420143476969,-3.60360115465115,-3.54083510963333
4.975,-15.8649042764482,-3.61537588131777,-3.55573122553934
5,-15.8551129079748,-3.63480718575765,-3.57767223452081
5.025,-15.95781553994,-3.65188632696425,-3.59587414206213
5.05,-15.9789642070611,-3.63764522581316,-3.58682103827481
5.075,-15.9123423576847,-3.62077728913574,-3.57968125093019
5.1,-15.8625441969676,-3.60942103494131,-3.57746089066495
5.125,-15.8258496960692,-3.60192085973263,-3.57636953514121
5.15,-15.8134371443192,-3.59743170158146,-3.57788131646596
5.175,-15.8257425095738,-3.59406146391169,-3.58083782385133
5.2,-15.8593933766676,-3.59093259874022,-3.58427071021619
5.225,-15.9121076675021,-3.58772953999788,-3.58771783958623
5.25,-15.982620756634,-3.58434672745991,-3.59095849826479
5.275,-16.0702610126137,-3.58076084770203,-3.59387940872799
5.3,-16.1746961391272,-3.57698400390897,-3.5964196881084
5.325,-16.295797773114,-3.57304467523096,-3.59854746617441
5.35,-16.4335671276489,-3.56897913382404,-3.60024919060605
5.375,-16.5880911906121,-3.56482723687045,-3.60152430578347
5.4,-16.75951419124,-3.56063024180394,-3.60238234218763
5.425,-16.9480163180765,-3.55642964854826,-3.60284114903292
5.45,-17.1537950635985,-3.55226661888386,-3.60292570561021
5.475,-17.3770461125636,-3.54818176376085,-3.60266726681886
5.5,-17.6179412380666,-3.54421521683136,-3.6021027630027
5.525,-17.8766006093444,-3.5404070069589,-3.6012744829187
5.55,-18.1530563141006,-3.53679784479426,-3.60023019159369
5.575,-18.4472024684795,-3.53343062011194,-3.59902403270265
5.6,-18.7587240982521,-3.53035327592734,-3.59771899246366
5.625,-19.0869892307955,-3.52762458014919,-3.59639271705851
5.65,-19.4308668750297,-3.52532644375276,-3.59515110382946
5.675,-19.7883647687901,-3.52359202378173,-3.59416130536615
5.7,-20.155741216757,-3.52267318621439,-3.59373568165147
5.725,-20.5249194223963,-3.52309232368941,-3.59453644678964
5.75,-20.8768516858726,-3.52572100051671,-3.5977606824436
5.775,-21.1904020379741,-3.52940250953512,-3.60220874477919
5.8,-21.5271391040711,-3.52768950185648,-3.59904229596607
5.825,-21.9080019298817,-3.52333780760289,-3.59192814209607
5.85,-22.2716950728006,-3.5202536041161,-3.58751054098511
5.875,-22.5904932434849,-3.51888745698419,-3.58547452127554
5.9,-22.8515987701312,-3.51889273551165,-3.58469654604069
5.925,-23.0456835340837,-3.51983793274473,-3.58465893754395
5.95,-23.1648569158031,-3.52147155248756,-3.58517084590066
5.975,-23.2040303179489,-3.5236623198074,-3.58616054767965
6,-23.1623101326387,-3.5263360875464,-3.58759999761473
6.025,-23.0434845072419,-3.52944427848747,-3.58947800614448
6.05,-22.8555028286984,-3.53294943423849,-3.59178979877198
6.075,-22.6092211449811,-3.53681847475572,-3.59453257151083
6.1,-22.31686939515,-3.54101944275736,-3.59770348118426
6.125,-21.9906640138965,-3.54551989994378,-3.60129872165265
6.15,-21.6418124202998,-3.55028615617483,-3.60531312294771
6.175,-21.2799610748917,-3.55528294982952,-3.60974001623393
6.2,-20.913011202114,-3.56047339272268,-3.61457123812357
6.225,-20.5471802467226,-3.56581908686144,-3.61979720529298
6.25,-20.1871957552097,-3.57128036522592,-3.62540702074205
6.275,-19.8365393606512,-3.57681663494542,-3.6313885860814
6.3,-19.4976907469498,-3.58238681394622,-3.63772870501509
6.325,-19.1723461446995,-3.5879498621888,-3.64441316946221
6.35,-18.8616017711137,-3.59346541706935,-3.65142682605519
6.375,-18.566101457131,-3.59889454900398,-3.65875363245593
6.4,-18.2861518694029,-3.6042006672524,-3.66637672548505
6.425,-18.0218101086788,-3.60935062594039,-3.67427854851264
6.45,-17.7729483421714,-3.61431611981335,-3.68244112767536
6.475,-17.5392991823245,-3.61907554120505,-3.69084666120348
6.5,-17.3204840069379,-3.6236166397589,-3.69947873374523
6.525,-17.1160241924057,-3.62794071072578,-3.70832476295976
6.55,-16.9253315824529,-3.63206994488806,-3.71738093114144
6.575,-16.7476677671929,-3.6360618846028,-3.72666235244071
6.6,-16.5820489275483,-3.64004130616913,-3.73622493175889
6.625,-16.4270551123558,-3.64427889741244,-3.74621478178712
6.65,-16.2805571825209,-3.6494037972339,-3.7569813630418
6.675,-16.1404192578575,-3.65693236396459,-3.76926209398575
6.7,-16.0162501904447,-3.66874935708347,-3.78336418041328
6.725,-15.950972160863,-3.67446162139822,-3.79436331038777
6.75,-15.9184212651225,-3.66597368692235,-3.80175780008139
6.775,-15.8937375400433,-3.656140235802,-3.80090671964466
6.8,-15.8464697215696,-3.65231124916767,-3.80041555401123
6.825,-15.7950570056305,-3.65182854500219,-3.80351420119109
6.85,-15.7520430915211,-3.65238241996474,-3.8078599220438
6.875,-15.7200052941059,-3.65328701559064,-3.81230604030317
6.9,-15.6991924458768,-3.65434727254178,-3.81640591538522
6.925,-15.6894199772744,-3.65550659433724,-3.8199685772674
6.95,-15.690460081603,-3.65675062739738,-3.8229041852936
6.975,-15.702119599038,-3.65807757705187,-3.82516983808671
7,-15.7242508273407,-3.65948799773945,-3.82674847634454
7.025,-15.7567484045776,-3.66098118914283,-3.8276395276239
7.05,-15.7995443641679,-3.66255414183994,-3.82785407169817
7.075,-15.8526039337531,-3.66420156475234,-3.82741188874943
7.1,-15.9159223966423,-3.66591638426409,-3.82633936993238
7.125,-15.9895228314631,-3.66769043010277,-3.82466787973086
7.15,-16.0734544861195,-3.66951515859235,-3.82243240495687
7.175,-16.1677915859978,-3.6713823322419,-3.81967042153564
7.2,-16.272632416326,-3.67328461102663,-3.81642094948517
7.225,-16.3880985535495,-3.67521603510404,-3.81272377773829
7.25,-16.514334138386,-3.67717239263921,-3.80861884424176
7.275,-16.6515050910588,-3.67915147704755,-3.80414575505127
7.3,-16.7997981694819,-3.68115324404545,-3.79934342466405
7.325,-16.9594197468802,-3.68317988153393,-3.7942498206864
7.35,-17.1305941771182,-3.68523580841625,-3.78890179391601
7.375,-17.3135615701022,-3.68732761676556,-3.78333497888174
7.4,-17.5085747538887,-3.68946397415237,-3.77758374896196
7.425,-17.7158951393178,-3.6916554996259,-3.77168121544575
7.45,-17.9357871086983,-3.69391462963881,-3.76565926017738
7.475,-18.1685104429628,-3.69625548940699,-3.75954859613811
7.5,-18.4143101480457,-3.69869378953436,-3.7533788527377
7.525,-18.6734028619461,-3.70124677349082,-3.74717868713975
7.55,-18.9459587824878,-3.70393325424771,-3.74097592875177
7.575,-19.232077799582,-3.7067738006225,-3.73479777338377
7.6,-19.5317582290244,-3.7097911782501,-3.72867105863087
7.625,-19.8448563559633,-3.71301123015597,-3.72262268580619
7.65,-20.1710351543563,-3.71646454833155,-3.71668031753914
7.675,-20.5097017307525,-3.72018962446245,-3.71087363668853
7.7,-20.8599372984301,-3.72423891060935,-3.70523683182319
7.725,-21.2204368321375,-3.72869091758903,-3.69981402638909
7.75,-21.5895186067709,-3.73367553174456,-3.69467259389925
7.775,-21.9654141969343,-3.73942927517046,-3.68994055256284
7.8,-22.3476340807661,-3.74641312411184,-3.68592910881863
7.825,-22.7425559022042,-3.75545114649377,-3.6835930343924
7.85,-23.179830828372,-3.76633178748323,-3.68598512724953
7.875,-23.6545057308221,-3.76849731618093,-3.69465430139154
7.9,-23.9978358953463,-3.76426682559354,-3.69619772761067
7.925,-24.3436731126524,-3.77417987075258,-3.69069066053056
7.95,-24.6264516105963,-3.78346749443277,-3.67347210372263
7.975,-24.7480374456379,-3.78527853400666,-3.66063372762812
8,-24.8110309607995,-3.7880981898159,-3.65457684328364
8.025,-24.8235769668203,-3.79259468368129,-3.65115668916652
8.05,-24.7753457942327,-3.79806042731651,-3.64889683853
8.075,-24.6627142288196,-3.8040617837642,-3.64736324286597
8.1,-24.4883873940068,-3.81036255206932,-3.64642367573642
8.125,-24.2592969504708,-3.81681970939663,-3.64604235525711
8.15,-23.9847410083096,-3.82333345249518,-3.64621842864586
8.175,-23.6748684595367,-3.82982481025279,-3.64696480263163
8.2,-23.3395655574245,-3.83622551310573,-3.64829968254452
8.225,-22.9877559097837,-3.84247347847626,-3.65024255728534
8.25,-22.6270566935401,-3.84851102898134,-3.65281187036678
8.275,-22.2636950531685,-3.85428452078108,-3.65602337226751
8.3,-21.9025861599205,-3.85974472263775,-3.65988877596891
8.325,-21.5474935724633,-3.86484757970981,-3.66441458421327
8.35,-21.2012177216728,-3.86955513211396,-3.66960106325366
8.375,-20.8657805415007,-3.87383642356673,-3.67544138722832
