F[GHz],dB(S(Port1Port1)),dB(S(Port1Port2)),
0,-15.7643014438755,-1.54392333843056
0.001,-15.7643934729896,-1.54392324543994
0.002,-15.7646695706535,-1.54392296664776
0.003,-15.7651297678407,-1.54392250259478
0.004,-15.7657741161682,-1.54392185418153
0.005,-15.7666026879023,-1.5439210226687
0.006,-15.7676155759559,-1.5439200096771
0.007,-15.7688128938863,-1.54391881718702
0.008,-15.770194775902,-1.54391744753903
0.009,-15.7717613768533,-1.54391590343265
0.01,-15.7735128722397,-1.54391418792683
0.011,-15.7754494582035,-1.54391230443916
0.012,-15.7775713515351,-1.54391025674617
0.013,-15.7798787896679,-1.54390804898211
0.014,-15.782372030681,-1.54390568563937
0.015,-15.7850513532997,-1.54390317156763
0.016,-15.7879170568923,-1.54390051197336
0.017,-15.790969461475,-1.54389771241957
0.018,-15.794208907708,-1.54389477882514
0.019,-15.7976357568953,-1.54389171746364
0.02,-15.8012503909949,-1.54388853496433
0.021,-15.8050532126058,-1.5438852383095
0.022,-15.809044644981,-1.54388183483516
0.023,-15.8132251320221,-1.54387833222961
0.024,-15.8175951382842,-1.54387473853281
0.025,-15.822155148981,-1.54387106213621
0.026,-15.8269056699822,-1.54386731178055
0.027,-15.8318472278197,-1.5438634965559
0.028,-15.836980369696,-1.54385962590101
0.029,-15.8423056634799,-1.54385570960121
0.03,-15.8478236977228,-1.54385175778865
0.031,-15.8535350816517,-1.54384778093946
0.032,-15.8594404451881,-1.54384378987443
0.033,-15.865540438954,-1.54383979575751
0.034,-15.8718357342684,-1.54383581009273
0.035,-15.8783270231768,-1.54383184472593
0.036,-15.8850150184445,-1.54382791184085
0.037,-15.8919004535766,-1.54382402395876
0.038,-15.8989840828292,-1.5438201939372
0.039,-15.9062666812282,-1.54381643496868
0.04,-15.9137490445746,-1.54381276057804
0.041,-15.9214319894697,-1.54380918462185
0.042,-15.9293163533314,-1.54380572128648
0.043,-15.9374029944141,-1.54380238508661
0.044,-15.9456927918284,-1.54379919086268
0.045,-15.9541866455652,-1.54379615377994
0.046,-15.9628854765231,-1.5437932893264
0.047,-15.9717902265318,-1.54379061331039
0.048,-15.9809018583791,-1.54378814185842
0.049,-15.9902213558538,-1.54378589141525
0.05,-15.9997497237602,-1.54378387873828
0.051,-16.009487987966,-1.54378212089768
0.052,-16.0194371954352,-1.54378063527355
0.053,-16.0295984142743,-1.5437794395543
0.054,-16.0399727337636,-1.54377855173259
0.055,-16.0505612644093,-1.54377799010396
0.056,-16.0613651379919,-1.5437777732645
0.057,-16.0723855076159,-1.54377792010797
0.058,-16.0836235477584,-1.54377844982234
0.059,-16.0950804543329,-1.54377938188826
0.06,-16.1067574447443,-1.54378073607528
0.061,-16.1186557579533,-1.54378253243962
0.062,-16.1307766545459,-1.54378479132112
0.063,-16.1431214167926,-1.54378753333866
0.064,-16.1556913487379,-1.54379077938985
0.065,-16.168487776262,-1.54379455064508
0.066,-16.1815120471735,-1.54379886854589
0.067,-16.1947655312884,-1.54380375480096
0.068,-16.2082496205212,-1.54380923138272
0.069,-16.2219657289737,-1.54381532052304
0.07,-16.2359152930451,-1.54382204471163
0.071,-16.2500997715197,-1.54382942668985
0.072,-16.2645206456845,-1.54383748944873
0.073,-16.2791794194382,-1.54384625622439
0.074,-16.2940776194025,-1.54385575049304
0.075,-16.3092167950567,-1.54386599596932
0.076,-16.3245985188506,-1.54387701659953
0.077,-16.3402243863488,-1.54388883655908
0.078,-16.3560960163648,-1.54390148024785
0.079,-16.3722150511008,-1.54391497228454
0.08,-16.3885831563075,-1.54392933750395
0.081,-16.405202021432,-1.54394460095125
0.082,-16.4220733597822,-1.54396078787693
0.083,-16.4391989087014,-1.54397792373332
0.084,-16.4565804297356,-1.54399603416839
0.085,-16.4742197088197,-1.54401514502106
0.086,-16.4921185564705,-1.54403528231659
0.087,-16.510278807977,-1.54405647226077
0.088,-16.5287023236083,-1.54407874123483
0.089,-16.5473909888302,-1.54410211579086
0.09,-16.566346714508,-1.54412662264361
0.091,-16.5855714371555,-1.54415228866845
0.092,-16.6050671191601,-1.5441791408939
0.093,-16.6248357490251,-1.54420720649511
0.094,-16.6448793416282,-1.54423651278917
0.095,-16.6651999384829,-1.54426708722905
0.096,-16.6857996080082,-1.54429895739668
0.097,-16.7066804458124,-1.54433215099791
0.098,-16.7278445749775,-1.54436669585463
0.099,-16.7492941463678,-1.54440261989975
0.1,-16.7710313389388,-1.54443995117073
0.101,-16.793058360056,-1.54447871780201
0.102,-16.8153774458275,-1.54451894801847
0.103,-16.8379908614556,-1.54456067013036
0.104,-16.8609009015755,-1.54460391252306
0.105,-16.8841098906433,-1.54464870365423
0.106,-16.907620183297,-1.54469507204309
0.107,-16.9314341647573,-1.54474304626513
0.108,-16.9555542512302,-1.54479265494469
0.109,-16.9799828903249,-1.54484392674747
0.11,-17.0047225614809,-1.54489689037231
0.111,-17.0297757764161,-1.54495157454444
0.112,-17.0551450795907,-1.54500800800849
0.113,-17.0808330486681,-1.54506621951886
0.114,-17.1068422950178,-1.54512623783356
0.115,-17.1331754642098,-1.54518809170543
0.116,-17.1598352365404,-1.54525180987435
0.117,-17.1868243275676,-1.5453174210594
0.118,-17.2141454886636,-1.5453849539501
0.119,-17.2418015075865,-1.54545443719863
0.12,-17.2697952090708,-1.54552589941141
0.121,-17.298129455432,-1.54559936914015
0.122,-17.3268071471943,-1.54567487487379
0.123,-17.3558312237399,-1.54575244503057
0.124,-17.3852046639669,-1.54583210794753
0.125,-17.4149304869838,-1.54591389187364
0.126,-17.4450117528099,-1.54599782495922
0.127,-17.4754515631139,-1.54608393524887
0.128,-17.5062530619603,-1.54617225067139
0.129,-17.5374194365848,-1.54626279903057
0.13,-17.5689539181937,-1.54635560799613
0.131,-17.6008597827966,-1.54645070509577
0.132,-17.6331403520424,-1.54654811770414
0.133,-17.6657989941089,-1.5466478730348
0.134,-17.6988391245933,-1.54674999812947
0.135,-17.7322642074566,-1.54685451985097
0.136,-17.7660777559743,-1.54696146487146
0.137,-17.8002833337292,-1.54707085966338
0.138,-17.8348845556299,-1.54718273049071
0.139,-17.869885088972,-1.54729710339925
0.14,-17.9052886545067,-1.54741400420499
0.141,-17.9410990275767,-1.54753345848739
0.142,-17.9773200392629,-1.54765549157795
0.143,-18.0139555775693,-1.54778012855001
0.144,-18.0510095886575,-1.54790739420927
0.145,-18.0884860781152,-1.54803731308573
0.146,-18.1263891122485,-1.54816990942031
0.147,-18.164722819441,-1.5483052071576
0.148,-18.2034913915442,-1.54844322993587
0.149,-18.2426990852987,-1.54858400107504
0.15,-18.2823502238283,-1.5487275435691
0.151,-18.3224491981557,-1.54887388007458
0.152,-18.3630004687839,-1.54902303290114
0.153,-18.4040085673237,-1.54917502400168
0.154,-18.4454780981603,-1.54932987496125
0.155,-18.4874137402053,-1.54948760698904
0.156,-18.5298202486712,-1.54964824090674
0.157,-18.5727024569272,-1.5498117971389
0.158,-18.6160652783966,-1.54997829570285
0.159,-18.6599137085456,-1.55014775619975
0.16,-18.7042528269027,-1.55032019780281
0.161,-18.7490877991685,-1.55049563924898
0.162,-18.7944238793975,-1.55067409882858
0.163,-18.8402664122286,-1.55085559437493
0.164,-18.8866208352198,-1.5510401432548
0.165,-18.9334926812454,-1.5512277623587
0.166,-18.9808875809764,-1.55141846809129
0.167,-19.0288112654507,-1.55161227636113
0.168,-19.0772695687236,-1.55180920257118
0.169,-19.1262684306231,-1.55200926160996
0.17,-19.1758138995837,-1.55221246784109
0.171,-19.225912135584,-1.55241883509277
0.172,-19.2765694132095,-1.5526283766514
0.173,-19.3277921247834,-1.55284110524958
0.174,-19.3795867836455,-1.55305703305792
0.175,-19.4319600275187,-1.55327617167465
0.176,-19.4849186220269,-1.55349853211853
0.177,-19.5384694643061,-1.55372412481766
0.178,-19.592619586777,-1.55395295960235
0.179,-19.647376161038,-1.55418504569473
0.18,-19.7027465019048,-1.55442039170104
0.181,-19.7587380716028,-1.55465900560246
0.182,-19.8153584841154,-1.55490089474639
0.183,-19.8726155096905,-1.55514606583849
0.184,-19.9305170795269,-1.5553945249344
0.185,-19.9890712906284,-1.55564627743118
0.186,-20.0482864108472,-1.55590132805841
0.187,-20.1081708841363,-1.55615968087256
0.188,-20.1687333359774,-1.55642133924674
0.189,-20.229982579045,-1.55668630586399
0.19,-20.2919276190888,-1.5569545827102
0.191,-20.3545776610412,-1.55722617106615
0.192,-20.417942115383,-1.55750107149977
0.193,-20.4820306047469,-1.55777928386017
0.194,-20.5468529708169,-1.55806080727062
0.195,-20.6124192814716,-1.55834564011947
0.196,-20.6787398382709,-1.55863378005781
0.197,-20.7458251842022,-1.55892522398819
0.198,-20.8136861117992,-1.55921996806226
0.199,-20.8823336715677,-1.55951800767278
0.2,-20.9517791807879,-1.55981933744771
0.201,-21.0220342326944,-1.56012395124551
0.202,-21.0931107060467,-1.56043184214811
0.203,-21.1650207751235,-1.56074300245677
0.204,-21.2377769201635,-1.5610574236872
0.205,-21.3113919382468,-1.56137509656277
0.206,-21.3858789546973,-1.56169601101207
0.207,-21.4612514349682,-1.56202015616286
0.208,-21.5375231970964,-1.56234752033816
0.209,-21.6147084247148,-1.56267809105261
0.21,-21.6928216806663,-1.56301185500782
0.211,-21.771877921275,-1.56334879808944
0.212,-21.8518925112706,-1.56368890536322
0.213,-21.9328812394364,-1.56403216107215
0.214,-22.0148603350094,-1.56437854863297
0.215,-22.0978464848867,-1.56472805063528
0.216,-22.181856851656,-1.5650806488357
0.217,-22.2669090925404,-1.56543632415916
0.218,-22.3530213792926,-1.56579505669514
0.219,-22.4402124190677,-1.56615682569525
0.22,-22.5285014764109,-1.56652160957367
0.221,-22.6179083963271,-1.56688938590506
0.222,-22.7084536285902,-1.56726013142325
0.223,-22.8001582533248,-1.56763382202034
0.224,-22.8930440079319,-1.5680104327471
0.225,-22.9871333154907,-1.56838993781291
0.226,-23.0824493146872,-1.56877231058536
0.227,-23.179015891381,-1.56915752358993
0.228,-23.2768577119546,-1.56954554851275
0.229,-23.3760002584926,-1.5699363561987
0.23,-23.4764698660057,-1.57032991665574
0.231,-23.5782937617532,-1.57072619905365
0.232,-23.6815001068719,-1.57112517172764
0.233,-23.7861180404471,-1.57152680217969
0.234,-23.8921777261896,-1.57193105708081
0.235,-23.9997104019394,-1.57233790227423
0.236,-24.1087484321739,-1.57274730277779
0.237,-24.2193253637345,-1.57315922278761
0.238,-24.3314759850614,-1.57357362568133
0.239,-24.4452363891136,-1.57399047402182
0.24,-24.5606440403754,-1.57440972956194
0.241,-24.6777378461369,-1.57483135324847
0.242,-24.7965582324721,-1.57525530522621
0.243,-24.9171472252699,-1.57568154484474
0.244,-25.0395485366913,-1.57611003066233
0.245,-25.1638076575152,-1.57654072045143
0.246,-25.2899719558745,-1.57697357120539
0.247,-25.4180907829086,-1.57740853914471
0.248,-25.5482155858655,-1.5778455797233
0.249,-25.6804000293903,-1.57828464763417
0.25,-25.8147001256242,-1.57872569681966
0.251,-25.9511743739371,-1.57916868047492
0.252,-26.0898839111514,-1.5796135510588
0.253,-26.2308926731845,-1.58006026030024
0.254,-26.3742675692109,-1.58050875920757
0.255,-26.5200786694316,-1.58095899807578
0.256,-26.6683994078608,-1.58141092649782
0.257,-26.819306801435,-1.58186449337099
0.258,-26.972881687165,-1.58231964690898
0.259,-27.1292089790484,-1.58277633465015
0.26,-27.288377946747,-1.5832345034683
0.261,-27.4504825182725,-1.58369409958318
0.262,-27.615621609177,-1.58415506857138
0.263,-27.783899481028,-1.58461735537613
0.264,-27.9554261323591,-1.58508090432075
0.265,-28.1303177255829,-1.58554565911854
0.266,-28.3086970539086,-1.58601156288482
0.267,-28.4906940527996,-1.58647855815065
0.268,-28.6764463610111,-1.58694658687364
0.269,-28.8660999370941,-1.58741559045098
0.27,-29.0598097379064,-1.58788550973374
0.271,-29.2577404666477,-1.58835628503851
0.272,-29.4600673990313,-1.58882785616267
0.273,-29.6669772973129,-1.58930016239683
0.274,-29.8786694234512,-1.58977314253899
0.275,-30.0953566642976,-1.5902467349108
0.276,-30.317266783589,-1.59072087737044
0.277,-30.5446438178673,-1.59119550732809
0.278,-30.7777496360701,-1.5916705617609
0.279,-31.0168656856145,-1.59214597722966
0.28,-31.2622949515157,-1.59262168989225
0.281,-31.5143641592532,-1.59309763552185
0.282,-31.7734262572794,-1.59357374952214
0.283,-32.0398632207743,-1.59404996694382
0.284,-32.3140892255379,-1.59452622250147
0.285,-32.5965542484797,-1.59500245058971
0.286,-32.8877481613039,-1.59547858530185
0.287,-33.188205394454,-1.59595456044606
0.288,-33.4985102612982,-1.59643030956326
0.289,-33.8193030466615,-1.59690576594497
0.29,-34.1512869798427,-1.59738086265119
0.291,-34.49523622881,-1.59785553253003
0.292,-34.8520050692221,-1.59832970823346
0.293,-35.2225383962199,-1.59880332223796
0.294,-35.6078837550111,-1.59927630686342
0.295,-36.0092050599608,-1.59974859429067
0.296,-36.42779813895,-1.60022011658234
0.297,-36.8651081550673,-1.60069080570106
0.298,-37.3227487816014,-1.60116059352949
0.299,-37.8025226647857,-1.60162941189039
0.3,-38.3064420740229,-1.60209719256643
0.301,-38.8367474833818,-1.60256386731833
0.302,-39.3959197425761,-1.6030293679088
0.303,-39.9866777471603,-1.60349362611921
0.304,-40.6119467794185,-1.60395657377227
0.305,-41.274770564552,-1.60441814275206
0.306,-41.9781182752674,-1.60487826502405
0.307,-42.7244987335903,-1.60533687265775
0.308,-43.5152257244819,-1.6057938978454
0.309,-44.3490641835839,-1.60624927292461
0.31,-45.219817534214,-1.60670293039935
0.311,-46.1122409425307,-1.60715480296074
0.312,-46.9957595802318,-1.60760482350922
0.313,-47.816704894836,-1.60805292517476
0.314,-48.4937723700346,-1.60849904133979
0.315,-48.9279546350666,-1.60894310565962
0.316,-49.0372472686094,-1.60938505208537
0.317,-48.8014688192163,-1.60982481488404
0.318,-48.2753014954607,-1.61026232866209
0.319,-47.5547551026227,-1.61069752838561
0.32,-46.7329952134666,-1.61113034940359
0.321,-45.8779741294121,-1.61156072746895
0.322,-45.031244399171,-1.61198859876042
0.323,-44.2150453760467,-1.61241389990551
0.324,-43.4396059872099,-1.61283656800049
0.325,-42.7083345961052,-1.6132565406342
0.326,-42.0210127353944,-1.61367375590923
0.327,-41.3756283492042,-1.61408815246386
0.328,-40.7693869626892,-1.61449966949375
0.329,-40.1992522149799,-1.61490824677395
0.33,-39.6622240088754,-1.61531382468105
0.331,-39.1554726692534,-1.61571634421496
0.332,-38.6763952191385,-1.61611574701892
0.333,-38.2226304024351,-1.61651197540442
0.334,-37.7920526570418,-1.61690497237056
0.335,-37.3827561161537,-1.61729468162539
0.336,-36.99303464172,-1.61768104760841
0.337,-36.621361070931,-1.61806401551168
0.338,-36.2663672875564,-1.61844353130095
0.339,-35.9268258634487,-1.6188195417369
0.34,-35.6016335435121,-1.61919199439579
0.341,-35.2897965980179,-1.61956083769168
0.342,-34.9904179405768,-1.61992602089474
0.343,-34.7026858547646,-1.62028749415514
0.344,-34.4258641539531,-1.62064520852129
0.345,-34.1592836012289,-1.62099911596095
0.346,-33.9023344278276,-1.62134916938129
0.347,-33.6544598045165,-1.62169532264985
0.348,-33.4151501372218,-1.62203753061274
0.349,-33.1839380749144,-1.62237574911587
0.35,-32.9603941324183,-1.62270993502436
0.351,-32.7441228448025,-1.62304004624051
0.352,-32.534759381461,-1.62336604172431
0.353,-32.3319665584552,-1.62368788151265
0.354,-32.1354321963064,-1.62400552673655
0.355,-31.9448667782513,-1.62431893964037
0.356,-31.7600013699891,-1.62462808360116
0.357,-31.580585767852,-1.62493292314422
0.358,-31.4063868466075,-1.62523342396392
0.359,-31.2371870823852,-1.62552955293806
0.36,-31.0727832292832,-1.62582127814795
0.361,-30.9129851313948,-1.62610856889328
0.362,-30.7576146542524,-1.62639139571032
0.363,-30.6065047217644,-1.62666973038744
0.364,-30.4594984467496,-1.62694354598122
0.365,-30.3164483443925,-1.62721281683289
0.366,-30.1772156196124,-1.62747751858416
0.367,-30.0416695201405,-1.62773762819074
0.368,-29.909686748388,-1.62799312393868
0.369,-29.7811509258654,-1.62824398545929
0.37,-29.6559521046371,-1.62849019374167
0.371,-29.5339863211001,-1.6287317311483
0.372,-29.4151551877472,-1.62896858142802
0.373,-29.2993655191905,-1.62920072972878
0.374,-29.1865289890532,-1.62942816261108
0.375,-29.0765618148222,-1.62965086805994
0.376,-28.9693844679229,-1.62986883549783
0.377,-28.8649214067616,-1.63008205579527
0.378,-28.7631008305036,-1.63029052128296
0.379,-28.66385445181,-1.6304942257629
0.38,-28.5671172867607,-1.63069316451752
0.381,-28.4728274604959,-1.63088733432216
0.382,-28.3809260271541,-1.63107673345246
0.383,-28.291356802938,-1.63126136169501
0.384,-28.2040662111541,-1.63144122035567
0.385,-28.1190031382461,-1.63161631226924
0.386,-28.0361187998939,-1.63178664180524
0.387,-27.9553666164001,-1.63195221487717
0.388,-27.8767020965649,-1.63211303894975
0.389,-27.8000827294234,-1.63226912304484
0.39,-27.7254678832084,-1.63242047774748
0.391,-27.6528187109752,-1.63256711521315
0.392,-27.5820980624054,-1.63270904917075
0.393,-27.5132704012908,-1.63284629492965
0.394,-27.446301728324,-1.63297886938279
0.395,-27.3811595087522,-1.633106791011
0.396,-27.3178126045624,-1.63323007988577
0.397,-27.2562312109267,-1.6333487576737
0.398,-27.1963867965018,-1.63346284763662
0.399,-27.1382520474077,-1.63357237463542
0.4,-27.0818008145995,-1.63367736513082
0.401,-27.0270080643825,-1.63377784718395
0.402,-26.9738498318936,-1.63387385045683
0.403,-26.9223031773415,-1.63396540621232
0.404,-26.8723461448126,-1.6340525473143
0.405,-26.8239577234803,-1.63413530822437
0.406,-26.7771178111008,-1.63421372500265
0.407,-26.7318071796045,-1.63428783530424
0.408,-26.6880074426644,-1.6343576783753
0.409,-26.6457010251622,-1.63442329505314
0.41,-26.604871134357,-1.6344847277586
0.411,-26.5655017327748,-1.63454202049417
0.412,-26.5275775125847,-1.6345952188378
0.413,-26.4910838714733,-1.63464436993829
0.414,-26.4560068899008,-1.6346895225088
0.415,-26.4223333096513,-1.63473072682052
0.416,-26.3900505136324,-1.63476803469518
0.417,-26.3591465068299,-1.63480149949698
0.418,-26.3296098983937,-1.63483117612713
0.419,-26.3014298847415,-1.63485712101046
0.42,-26.2745962336907,-1.63487939209018
0.421,-26.249099269513,-1.63489804881602
0.422,-26.224929858937,-1.63491315213367
0.423,-26.2020793979616,-1.63492476447575
0.424,-26.1805397995116,-1.63493294974727
0.425,-26.1603034818855,-1.63493777331548
0.426,-26.1413633579729,-1.63493930199733
0.427,-26.1237128251384,-1.63493760404481
0.428,-26.1073457558441,-1.63493274913274
0.429,-26.0922564889355,-1.63492480834374
0.43,-26.0784398215205,-1.63491385415218
0.431,-26.065891001549,-1.63489996041114
0.432,-26.0546057208845,-1.63488320233435
0.433,-26.0445801090475,-1.63486365648043
0.434,-26.0358107274585,-1.63484140073577
0.435,-26.0282945642419,-1.63481651429703
0.436,-26.0220290295658,-1.63478907765163
0.437,-26.0170119514658,-1.6347591725616
0.438,-26.0132415722141,-1.63472688204108
0.439,-26.0107165451429,-1.6346922903389
0.44,-26.009435931968,-1.63465548291761
0.441,-26.009399200572,-1.63461654643155
0.442,-26.0106062232674,-1.6345755687061
0.443,-26.0130572754969,-1.63453263871756
0.444,-26.0167530350162,-1.6344878465657
0.445,-26.0216945814935,-1.6344412834565
0.446,-26.0278833965869,-1.63439304167514
0.447,-26.035321364426,-1.63434321456224
0.448,-26.0440107725634,-1.63429189649076
0.449,-26.0539543133609,-1.63423918283921
0.45,-26.065155085813,-1.63418516996764
0.451,-26.077616597808,-1.63412995518989
0.452,-26.0913427688287,-1.63407363674903
0.453,-26.1063379331177,-1.63401631378882
0.454,-26.1226068432746,-1.63395808632647
0.455,-26.1401546743127,-1.63389905522625
0.456,-26.158987028155,-1.63383932216715
0.457,-26.1791099386302,-1.63377898961942
0.458,-26.2005298769185,-1.63371816081102
0.459,-26.223253757466,-1.63365693969951
0.46,-26.247288944392,-1.63359543094106
0.461,-26.2726432584068,-1.63353373986161
0.462,-26.2993249842051,-1.63347197242326
0.463,-26.3273428784028,-1.63341023519561
0.464,-26.3567061779462,-1.63334863532057
0.465,-26.3874246091454,-1.6332872804839
0.466,-26.4195083971444,-1.63322627887946
